# smash and analysis version: SMASH-1.8.1 SMASH-2.1ana-3-gd3ffefe
# total number events: 10
# pdg list: 211 -211 111 321 -321 2212 -2212 3122 -3122 1000010020 -1000010020 3312 -3312 3334 -3334 3212 -3212
# mt bin edges: [0.  0.1 0.2 0.3 0.4 0.5 0.6 0.7 0.8 1.  1.2 1.4 1.6 1.8 2.  2.4 2.8 3.2]
# mt[GeV] bin center, number of pdg in bin (pdglist)
  0.050      102       76       91       11       18        1        6        2        2        0        0        0        0        0        0        1        2
  0.150       74       59       64        7       12        4        2        3        1        0        0        0        1        0        0        1        0
  0.250       54       50       55        6       10        1        3        0        2        0        0        0        1        0        0        0        0
  0.350       38       58       36        5        2        3        3        2        1        0        0        0        0        0        0        0        0
  0.450       23       27       23        2        5        1        0        0        0        0        0        0        0        0        0        1        0
  0.550       16       20       26        5        2        2        0        0        0        0        0        0        0        0        0        0        0
  0.650       15        7       12        1        3        1        1        0        1        0        0        0        0        0        0        0        0
  0.750       14        8        9        3        2        1        1        0        0        0        0        0        0        0        0        0        0
  0.900        8        7        7        1        4        0        0        0        0        0        0        0        0        0        0        0        0
  1.100        5        1        2        1        1        0        0        0        0        0        0        0        0        0        0        0        0
  1.300        2        2        3        0        1        0        0        0        0        0        0        0        0        0        0        0        0
  1.500        1        0        0        0        0        0        0        0        0        0        0        0        0        0        0        0        0
  1.700        0        0        0        0        0        0        0        0        0        0        0        0        0        0        0        0        0
  1.900        0        0        0        0        0        0        0        0        0        0        0        0        0        0        0        0        0
  2.200        1        0        0        0        0        0        0        0        0        0        0        0        0        0        0        0        0
  2.600        0        0        0        0        0        0        0        0        0        0        0        0        0        0        0        0        0
  3.000        0        0        0        0        0        0        0        0        0        0        0        0        0        0        0        0        0
